#w(eV)  Im(eps)
0.0011969248160971153, 0.324866700525017
0.0013099913827325255, 0.35463439206624325
0.0014338100085203081, 0.38851444529522866
0.00157884362445022, 0.42889855743919153
0.0017279755743434887, 0.467959981151345
0.001891395578048654, 0.5145003824995552
0.0020826115764724634, 0.5659557148016041
0.0022794016938535804, 0.6189410101655842
0.0024948198230368163, 0.6775283474905203
0.002730607438867462, 0.7418776146374143
0.0029705142891639142, 0.8030428443767788
0.0032511810014415805, 0.8777766068730407
0.003558438529088049, 0.9608646448575505
0.003894682475747963, 1.050821678033601
0.004288578803802856, 1.1588664514808409
0.0046937675140741285, 1.2664374294765242
0.005137447403793725, 1.3880334598816635
0.005657153783428153, 1.533094317292085
0.006191627810595848, 1.6750365276602517
0.006776528846659154, 1.8287874294093613
0.007461939363804851, 2.017851112735378
0.008166949980436504, 2.2051567486602535
0.008938552475630843, 2.4094977236721897
0.009843129970698212, 2.668105991883661
0.010772723903967617, 2.9081322978032387
0.011790444619574812, 3.1762255628709077
0.012983263299903038, 3.509957024834667
0.014207827695574788, 3.795174868139641
0.015737386575744288, 4.1753837579061
0.017853626554791672, 4.652209346640228
0.02036649017342623, 5.029736711996944
0.023230204682682724, 5.390557743422915
0.026488232445206088, 5.647998194503892
0.030191961718063993, 5.761765795505924
0.034400764666652095, 5.722909236018234
0.03919182487849386, 5.6381124503218105
0.04463238193859793, 5.398154032839282
0.05080954419714331, 5.034056961704531
0.05646765542144027, 4.595881578719803
0.06091781035720319, 4.18231496379364
0.06416598885981638, 3.7611781349427273
0.06640319006021266, 3.4148487431152064
0.06870797725913454, 3.066854685764061
0.07068203554026214, 2.78257683951221
0.07271005526470573, 2.5177909766597923
0.07523944971975628, 2.2735490109146284
0.07786126111075514, 2.061394721143982
0.08421184710391795, 1.8766232383278836
0.08493587034712058, 1.77602772909331
0.09143792391395833, 2.1295658581244403
0.0938268872313731, 2.466510072494337
0.09623449293473195, 2.7650130427934188
0.09930095249919677, 3.120781503101257
0.10808509875367292, 3.5148008686531127
0.11799595671756838, 3.198843941876002
0.12206776625011302, 2.833086238322059
0.1248659860421244, 2.6216886534105672
0.1276884234811742, 2.372222302400697
0.13056723630796546, 2.1377527012158666
0.1319577355772363, 1.9502022021592194
0.133366833747662, 1.7827396205265795
0.13478331693646653, 1.6230204792210539
0.13624582028949658, 1.501927075485311
0.13768896758263297, 1.364579473644238
0.13913949149194388, 1.2347431659640709
0.1406052963612941, 1.1172604566763797
0.1420542395128223, 0.9945885642238093
0.1444054288309356, 0.8999523076739973
0.14757722334009432, 0.7785735856098135
0.1497105046003553, 0.7001933801282143
0.15148395891821687, 0.6032938791569232
0.1530332007554009, 0.5340880197672744
0.15461335281982683, 0.47614013971665087
0.15585208466217185, 0.4150191119214699
0.15686447830573963, 0.37425726841173135
0.15848998199324185, 0.3345272248525431
0.16069725404363783, 0.289804229732044
0.16265324139720438, 0.25553950744181364
0.1643480729895359, 0.22934615760499125
0.1656647974995942, 0.1999055124998871
0.1717608824085464, 0.1800227409373391
0.18979056626150803, 0.16637525660525895
0.21482206228447823, 0.15740348907800578
0.2431001854612153, 0.146526322984143
0.27688136811147585, 0.14154475753101206
0.3153942657086263, 0.13790417557526952
0.35924370484385587, 0.13381008695515484
0.4091282381000288, 0.12844823764656985
0.46593973103463965, 0.12330124081033689
0.5306702251567499, 0.11884445816494257
0.6044495999548543, 0.11531621297797057
0.6885399322467571, 0.1125170745910874
0.7843693473704109, 0.1101939054079823
0.8935822578772282, 0.1083197879195821
1.0180384268478289, 0.10675440015522285
1.1599124906765, 0.10575947441527779
1.3215854737390145, 0.10492940643626705
1.5058163922406085, 0.10422177688867611
1.7157204998121616, 0.10348052467417214
1.9550358454488446, 0.10331785824409105
2.227559146778244, 0.10258303493261516
2.538280847822149, 0.10245978130627187
2.8923898862786297, 0.10245062928900861
3.295729449638416, 0.10206215957336567
3.7552753162385, 0.10159975487337496
4.279164125671678, 0.10159067967627149
4.875559789763805, 0.1007185771055711
5.3923685446547935, 0.09952315609089502
5.631874371916382, 0.11409856714347955
5.778359205367113, 0.1310773421732721
5.904846459036497, 0.14986792089456938
6.064399520353646, 0.17211080745745452
6.127950767427138, 0.1919603808312445
6.243024613253299, 0.20324364965115563
6.3283686410515845, 0.22970962051640342
6.4549068804673, 0.26497236055342954
6.539986661991406, 0.28926717332086066
6.626187849193121, 0.31578953135441595
6.714479357525953, 0.348278594300669
6.803947317631826, 0.384110197471731
6.8949993366823215, 0.42536042589482465
6.986607887247215, 0.46784789064521143
7.093455716539769, 0.5145785531830644
7.176143572763932, 0.5811912986503143
7.2732099402282495, 0.6502057799932929
7.371356459392294, 0.7257683039210441
7.47044991280711, 0.8071790632037432
7.590189190371468, 0.9351532584420819
7.778373673569384, 1.1371646259822568
7.907122673237811, 1.367112040787458
8.019712140544689, 1.6086142972503377
8.117195262767684, 1.8822544560955774
8.173650670144069, 2.021575245107855
8.565205406309621, 2.9445198920864013
8.70578265595245, 2.335919995153754
8.755110824678296, 2.5847317480446264
9.73702553687691, 2.4839017419204135
10.660798013432597, 2.785016425429021
12.018458128559066, 3.0237134131819086
13.119252735419977, 2.733334158862687
14.070075928297449, 2.4959755193135584
15.36237985986379, 2.294531796781396
16.57365563166238, 2.0933365526178176
17.566637355235095, 1.9239604719450016
18.285962486054636, 1.73731684158612
18.92387652578468, 1.57949163109018
19.581447086030252, 1.422395981000481
20.2634027947248, 1.287913291032625
20.965533090746952, 1.1519567157798678
21.70053179593345, 1.008959863483659
22.9633305238132, 0.8668527200270612
24.337021534078602, 0.7316526428442338
26.819295635182087, 0.5615197216429079
29.32628504765007, 0.4766537757600005
